# Time X Y Z VX VY VZ Phi Theta Psi P Q R U1 U2 U3 U4
0.000000 -0.000001 0.000001 1.001384 -0.000375 0.000187 0.276749 0.001000 0.002000 0.001001 0.099821 0.200090 0.100000 18.742500 18.742500 18.742500 18.742500
0.010000 -0.000006 0.000003 1.004162 -0.000670 0.000334 0.278806 0.001912 0.003824 0.002004 0.082069 0.165000 0.100000 5.229679 4.897065 4.786213 5.118827
0.020000 -0.000015 0.000008 1.006958 -0.001129 0.000562 0.280479 0.002655 0.005308 0.003007 0.065546 0.132299 0.100000 5.195325 4.885425 4.782181 5.092081
0.030000 -0.000029 0.000015 1.009771 -0.001721 0.000856 0.282145 0.003247 0.006491 0.004011 0.051719 0.104932 0.100000 5.161335 4.901973 4.815603 5.074964
0.040000 -0.000050 0.000025 1.012601 -0.002418 0.001201 0.283805 0.003714 0.007424 0.005014 0.040304 0.082335 0.100000 5.130929 4.916775 4.845489 5.059644
0.050000 -0.000078 0.000039 1.015447 -0.003199 0.001586 0.285459 0.004078 0.008151 0.006017 0.030905 0.063723 0.100000 5.105484 4.929101 4.870413 5.046795
0.060000 -0.000114 0.000057 1.018310 -0.004043 0.002002 0.287107 0.004357 0.008707 0.007019 0.023175 0.048413 0.100000 5.084359 4.939270 4.891012 5.036101
0.070000 -0.000159 0.000079 1.021189 -0.004937 0.002441 0.288749 0.004566 0.009124 0.008021 0.016827 0.035834 0.100000 5.066834 4.947640 4.908009 5.027203
0.080000 -0.000213 0.000106 1.024085 -0.005867 0.002896 0.290385 0.004718 0.009426 0.009022 0.011622 0.025515 0.100000 5.052291 4.954519 4.922021 5.019793
0.090000 -0.000276 0.000137 1.026997 -0.006823 0.003363 0.292016 0.004822 0.009634 0.010024 0.007364 0.017065 0.100000 5.040217 4.960162 4.933561 5.013616
0.100000 -0.000350 0.000173 1.029925 -0.007795 0.003837 0.293642 0.004888 0.009765 0.011024 0.003888 0.010159 0.100000 5.030186 4.964782 4.943054 5.008459
0.110000 -0.000432 0.000214 1.032870 -0.008779 0.004315 0.295261 0.004923 0.009834 0.012025 0.001058 0.004531 0.100000 5.021847 4.968554 4.950854 5.004146
0.120000 -0.000525 0.000259 1.035830 -0.009767 0.004795 0.296875 0.004932 0.009851 0.013025 -0.001237 -0.000042 0.100000 5.014907 4.971624 4.957250 5.000533
0.130000 -0.000628 0.000309 1.038807 -0.010755 0.005273 0.298484 0.004920 0.009827 0.014025 -0.003090 -0.003743 0.100000 5.009125 4.974111 4.962485 4.997499
0.140000 -0.000740 0.000365 1.041800 -0.011739 0.005748 0.300087 0.004891 0.009770 0.015024 -0.004578 -0.006724 0.100000 5.004302 4.976117 4.966758 4.994943
0.150000 -0.000862 0.000424 1.044809 -0.012716 0.006218 0.301685 0.004849 0.009686 0.016024 -0.005766 -0.009111 0.100000 5.000272 4.977723 4.970235 4.992784
0.160000 -0.000994 0.000489 1.047834 -0.013685 0.006683 0.303277 0.004797 0.009581 0.017024 -0.006705 -0.011007 0.100000 4.996897 4.978998 4.973053 4.990952
0.170000 -0.001136 0.000558 1.050874 -0.014642 0.007142 0.304864 0.004735 0.009458 0.018023 -0.007439 -0.012500 0.100000 4.994066 4.979999 4.975326 4.989392
0.180000 -0.001287 0.000632 1.053931 -0.015587 0.007593 0.306446 0.004667 0.009323 0.019023 -0.008005 -0.013660 0.100000 4.991683 4.980773 4.977146 4.988056
0.190000 -0.001448 0.000710 1.057003 -0.016517 0.008036 0.308021 0.004595 0.009177 0.020022 -0.008432 -0.014546 0.100000 4.989671 4.981358 4.978592 4.986905
0.200000 -0.001618 0.000792 1.060091 -0.017434 0.008472 0.309592 0.004518 0.009024 0.021021 -0.008746 -0.015207 0.100000 4.987965 4.981787 4.979729 4.985907
0.210000 -0.001796 0.000879 1.063195 -0.018335 0.008899 0.311157 0.004438 0.008865 0.022021 -0.008966 -0.015683 0.100000 4.986513 4.982087 4.980608 4.985035
0.220000 -0.001984 0.000970 1.066315 -0.019219 0.009317 0.312716 0.004357 0.008702 0.023020 -0.009109 -0.016008 0.100000 4.985271 4.982279 4.981276 4.984267
0.230000 -0.002181 0.001066 1.069449 -0.020088 0.009727 0.314269 0.004274 0.008537 0.024019 -0.009190 -0.016209 0.100000 4.984201 4.982382 4.981767 4.983586
0.240000 -0.002386 0.001165 1.072600 -0.020941 0.010128 0.315817 0.004190 0.008370 0.025019 -0.009220 -0.016309 0.100000 4.983273 4.982412 4.982113 4.982975
0.250000 -0.002600 0.001268 1.075766 -0.021777 0.010520 0.317359 0.004106 0.008203 0.026018 -0.009209 -0.016328 0.100000 4.982464 4.982379 4.982338 4.982422
0.260000 -0.002821 0.001375 1.078947 -0.022596 0.010903 0.318896 0.004022 0.008036 0.027017 -0.009164 -0.016279 0.100000 4.981751 4.982296 4.982463 4.981918
0.270000 -0.003051 0.001486 1.082144 -0.023399 0.011278 0.320427 0.003939 0.007869 0.028017 -0.009093 -0.016177 0.100000 4.981117 4.982171 4.982506 4.981452
0.280000 -0.003289 0.001601 1.085356 -0.024185 0.011644 0.321951 0.003856 0.007704 0.029016 -0.009000 -0.016033 0.100000 4.980550 4.982010 4.982479 4.981019
0.290000 -0.003535 0.001719 1.088583 -0.024955 0.012001 0.323471 0.003775 0.007541 0.030016 -0.008890 -0.015853 0.100000 4.980036 4.981820 4.982396 4.980612
0.300000 -0.003788 0.001841 1.091825 -0.025709 0.012350 0.324984 0.003694 0.007380 0.031015 -0.008766 -0.015647 0.100000 4.979566 4.981605 4.982266 4.980227
0.310000 -0.004049 0.001966 1.095082 -0.026447 0.012691 0.326491 0.003614 0.007221 0.032014 -0.008633 -0.015420 0.100000 4.979132 4.981370 4.982097 4.979859
0.320000 -0.004317 0.002095 1.098355 -0.027170 0.013024 0.327993 0.003536 0.007064 0.033014 -0.008491 -0.015176 0.100000 4.978728 4.981117 4.981895 4.979505
0.330000 -0.004593 0.002226 1.101642 -0.027877 0.013349 0.329488 0.003458 0.006910 0.034013 -0.008344 -0.014921 0.100000 4.978347 4.980851 4.981666 4.979162
0.340000 -0.004875 0.002362 1.104944 -0.028569 0.013665 0.330977 0.003383 0.006759 0.035013 -0.008192 -0.014656 0.100000 4.977986 4.980572 4.981415 4.978828
0.350000 -0.005164 0.002500 1.108262 -0.029246 0.013975 0.332461 0.003308 0.006611 0.036012 -0.008038 -0.014385 0.100000 4.977640 4.980283 4.981145 4.978502
0.360000 -0.005460 0.002641 1.111594 -0.029908 0.014276 0.333938 0.003235 0.006465 0.037012 -0.007882 -0.014111 0.100000 4.977307 4.979986 4.980859 4.978180
0.370000 -0.005762 0.002785 1.114940 -0.030556 0.014571 0.335409 0.003163 0.006322 0.038012 -0.007725 -0.013834 0.100000 4.976984 4.979681 4.980561 4.977863
0.380000 -0.006071 0.002932 1.118302 -0.031190 0.014858 0.336874 0.003093 0.006182 0.039011 -0.007568 -0.013557 0.100000 4.976668 4.979371 4.980252 4.977550
0.390000 -0.006386 0.003082 1.121678 -0.031810 0.015138 0.338333 0.003024 0.006045 0.040011 -0.007412 -0.013280 0.100000 4.976359 4.979055 4.979934 4.977238
0.400000 -0.006707 0.003235 1.125068 -0.032416 0.015411 0.339786 0.002957 0.005910 0.041010 -0.007257 -0.013005 0.100000 4.976054 4.978734 4.979608 4.976928
0.410000 -0.007034 0.003391 1.128473 -0.033010 0.015678 0.341232 0.002891 0.005779 0.042010 -0.007104 -0.012731 0.100000 4.975753 4.978409 4.979276 4.976620
0.420000 -0.007367 0.003549 1.131893 -0.033590 0.015938 0.342672 0.002826 0.005650 0.043010 -0.006952 -0.012461 0.100000 4.975454 4.978081 4.978939 4.976311
0.430000 -0.007706 0.003709 1.135327 -0.034157 0.016192 0.344106 0.002763 0.005524 0.044009 -0.006802 -0.012195 0.100000 4.975156 4.977750 4.978597 4.976003
0.440000 -0.008050 0.003872 1.138775 -0.034712 0.016439 0.345533 0.002701 0.005400 0.045009 -0.006655 -0.011932 0.100000 4.974860 4.977417 4.978251 4.975694
0.450000 -0.008400 0.004038 1.142238 -0.035255 0.016680 0.346954 0.002641 0.005280 0.046009 -0.006510 -0.011673 0.100000 4.974564 4.977081 4.977902 4.975385
0.460000 -0.008755 0.004206 1.145714 -0.035786 0.016916 0.348369 0.002582 0.005161 0.047008 -0.006367 -0.011418 0.100000 4.974267 4.976742 4.977550 4.975075
0.470000 -0.009116 0.004376 1.149205 -0.036305 0.017145 0.349777 0.002524 0.005046 0.048008 -0.006227 -0.011168 0.100000 4.973971 4.976402 4.977196 4.974765
0.480000 -0.009481 0.004549 1.152710 -0.036813 0.017369 0.351179 0.002467 0.004933 0.049008 -0.006090 -0.010922 0.100000 4.973674 4.976060 4.976839 4.974453
0.490000 -0.009852 0.004724 1.156228 -0.037309 0.017587 0.352574 0.002412 0.004823 0.050008 -0.005955 -0.010682 0.100000 4.973375 4.975717 4.976481 4.974140
0.500000 -0.010227 0.004901 1.159761 -0.037795 0.017800 0.353963 0.002358 0.004715 0.051007 -0.005823 -0.010445 0.100000 4.973076 4.975371 4.976121 4.973825
0.510000 -0.010608 0.005080 1.163308 -0.038270 0.018008 0.355345 0.002305 0.004609 0.052007 -0.005694 -0.010214 0.100000 4.972775 4.975025 4.975759 4.973510
0.520000 -0.010993 0.005261 1.166868 -0.038734 0.018210 0.356720 0.002253 0.004506 0.053007 -0.005567 -0.009987 0.100000 4.972473 4.974677 4.975396 4.973193
0.530000 -0.011382 0.005444 1.170442 -0.039188 0.018408 0.358089 0.002203 0.004405 0.054007 -0.005443 -0.009765 0.100000 4.972169 4.974327 4.975032 4.972874
0.540000 -0.011776 0.005629 1.174030 -0.039632 0.018601 0.359451 0.002153 0.004306 0.055007 -0.005321 -0.009547 0.100000 4.971864 4.973976 4.974667 4.972554
0.550000 -0.012175 0.005816 1.177631 -0.040067 0.018788 0.360807 0.002105 0.004209 0.056006 -0.005203 -0.009335 0.100000 4.971557 4.973625 4.974300 4.972232
0.560000 -0.012578 0.006005 1.181246 -0.040491 0.018972 0.362155 0.002057 0.004115 0.057006 -0.005086 -0.009126 0.100000 4.971248 4.973271 4.973932 4.971909
0.570000 -0.012985 0.006195 1.184874 -0.040907 0.019150 0.363497 0.002011 0.004023 0.058006 -0.004972 -0.008922 0.100000 4.970937 4.972917 4.973564 4.971584
0.580000 -0.013396 0.006388 1.188516 -0.041313 0.019324 0.364832 0.001966 0.003933 0.059006 -0.004861 -0.008723 0.100000 4.970624 4.972562 4.973194 4.971257
0.590000 -0.013811 0.006582 1.192171 -0.041710 0.019494 0.366161 0.001922 0.003844 0.060006 -0.004752 -0.008528 0.100000 4.970310 4.972205 4.972824 4.970929
0.600000 -0.014230 0.006778 1.195839 -0.042098 0.019660 0.367482 0.001879 0.003758 0.061005 -0.004646 -0.008337 0.100000 4.969994 4.971847 4.972453 4.970599
0.610000 -0.014653 0.006975 1.199520 -0.042478 0.019821 0.368797 0.001836 0.003674 0.062005 -0.004541 -0.008150 0.100000 4.969676 4.971488 4.972081 4.970268
0.620000 -0.015080 0.007174 1.203215 -0.042850 0.019979 0.370105 0.001795 0.003591 0.063005 -0.004439 -0.007968 0.100000 4.969356 4.971128 4.971708 4.969935
0.630000 -0.015510 0.007375 1.206922 -0.043213 0.020132 0.371405 0.001755 0.003511 0.064005 -0.004340 -0.007789 0.100000 4.969034 4.970767 4.971334 4.969600
0.640000 -0.015944 0.007577 1.210643 -0.043568 0.020282 0.372699 0.001715 0.003432 0.065005 -0.004242 -0.007615 0.100000 4.968710 4.970405 4.970959 4.969264
0.650000 -0.016381 0.007780 1.214376 -0.043915 0.020428 0.373986 0.001677 0.003355 0.066005 -0.004147 -0.007444 0.100000 4.968385 4.970042 4.970584 4.968926
0.660000 -0.016822 0.007985 1.218123 -0.044255 0.020570 0.375266 0.001639 0.003280 0.067005 -0.004054 -0.007277 0.100000 4.968057 4.969678 4.970207 4.968587
0.670000 -0.017266 0.008192 1.221882 -0.044587 0.020709 0.376539 0.001602 0.003206 0.068005 -0.003963 -0.007114 0.100000 4.967728 4.969312 4.969830 4.968246
0.680000 -0.017714 0.008399 1.225653 -0.044912 0.020845 0.377804 0.001566 0.003134 0.069004 -0.003874 -0.006955 0.100000 4.967397 4.968946 4.969452 4.967903
0.690000 -0.018165 0.008608 1.229438 -0.045230 0.020977 0.379063 0.001531 0.003064 0.070004 -0.003787 -0.006799 0.100000 4.967064 4.968579 4.969074 4.967559
0.700000 -0.018618 0.008819 1.233235 -0.045540 0.021105 0.380314 0.001497 0.002995 0.071004 -0.003702 -0.006646 0.100000 4.966729 4.968210 4.968694 4.967213
0.710000 -0.019075 0.009031 1.237044 -0.045844 0.021231 0.381558 0.001463 0.002928 0.072004 -0.003619 -0.006497 0.100000 4.966393 4.967840 4.968314 4.966866
0.720000 -0.019535 0.009243 1.240866 -0.046141 0.021353 0.382796 0.001430 0.002862 0.073004 -0.003537 -0.006352 0.100000 4.966055 4.967470 4.967932 4.966517
0.730000 -0.019998 0.009458 1.244700 -0.046431 0.021472 0.384025 0.001398 0.002798 0.074004 -0.003458 -0.006209 0.100000 4.965715 4.967098 4.967550 4.966167
0.740000 -0.020464 0.009673 1.248546 -0.046715 0.021589 0.385248 0.001367 0.002735 0.075004 -0.003380 -0.006070 0.100000 4.965373 4.966725 4.967168 4.965815
0.750000 -0.020932 0.009889 1.252405 -0.046993 0.021702 0.386463 0.001336 0.002674 0.076004 -0.003304 -0.005934 0.100000 4.965029 4.966352 4.966784 4.965462
0.760000 -0.021404 0.010107 1.256275 -0.047265 0.021813 0.387672 0.001306 0.002614 0.077004 -0.003230 -0.005801 0.100000 4.964684 4.965977 4.966399 4.965107
0.770000 -0.021878 0.010326 1.260158 -0.047530 0.021921 0.388872 0.001276 0.002555 0.078004 -0.003157 -0.005671 0.100000 4.964337 4.965601 4.966014 4.964750
0.780000 -0.022354 0.010545 1.264053 -0.047790 0.022026 0.390066 0.001248 0.002498 0.079004 -0.003087 -0.005543 0.100000 4.963989 4.965224 4.965628 4.964393
0.790000 -0.022833 0.010766 1.267959 -0.048044 0.022128 0.391252 0.001220 0.002442 0.080004 -0.003017 -0.005419 0.100000 4.963638 4.964846 4.965241 4.964033
0.800000 -0.023315 0.010988 1.271878 -0.048292 0.022228 0.392430 0.001192 0.002387 0.081003 -0.002949 -0.005297 0.100000 4.963287 4.964467 4.964853 4.963673
0.810000 -0.023799 0.011211 1.275808 -0.048535 0.022326 0.393602 0.001166 0.002334 0.082003 -0.002883 -0.005179 0.100000 4.962933 4.964087 4.964464 4.963310
0.820000 -0.024286 0.011434 1.279750 -0.048772 0.022421 0.394766 0.001139 0.002281 0.083003 -0.002818 -0.005062 0.100000 4.962578 4.963706 4.964075 4.962947
0.830000 -0.024775 0.011659 1.283703 -0.049004 0.022513 0.395922 0.001114 0.002230 0.084003 -0.002755 -0.004949 0.100000 4.962221 4.963324 4.963685 4.962582
0.840000 -0.025266 0.011885 1.287668 -0.049231 0.022604 0.397071 0.001089 0.002180 0.085003 -0.002693 -0.004838 0.100000 4.961863 4.962941 4.963293 4.962215
0.850000 -0.025759 0.012111 1.291645 -0.049453 0.022692 0.398212 0.001064 0.002131 0.086003 -0.002633 -0.004729 0.100000 4.961503 4.962557 4.962901 4.961848
0.860000 -0.026255 0.012338 1.295632 -0.049670 0.022777 0.399346 0.001040 0.002083 0.087003 -0.002573 -0.004623 0.100000 4.961141 4.962171 4.962509 4.961478
0.870000 -0.026753 0.012567 1.299631 -0.049882 0.022861 0.400472 0.001017 0.002037 0.088003 -0.002516 -0.004519 0.100000 4.960778 4.961785 4.962115 4.961108
0.880000 -0.027253 0.012796 1.303642 -0.050090 0.022943 0.401591 0.000994 0.001991 0.089003 -0.002459 -0.004418 0.100000 4.960414 4.961398 4.961720 4.960736
0.890000 -0.027754 0.013026 1.307663 -0.050293 0.023022 0.402702 0.000972 0.001946 0.090003 -0.002404 -0.004319 0.100000 4.960048 4.961010 4.961325 4.960362
0.900000 -0.028258 0.013256 1.311696 -0.050491 0.023100 0.403805 0.000950 0.001903 0.091003 -0.002350 -0.004222 0.100000 4.959680 4.960621 4.960929 4.959988
0.910000 -0.028764 0.013487 1.315739 -0.050685 0.023175 0.404901 0.000928 0.001860 0.092003 -0.002297 -0.004127 0.100000 4.959311 4.960230 4.960531 4.959612
0.920000 -0.029272 0.013720 1.319794 -0.050875 0.023249 0.405989 0.000908 0.001818 0.093003 -0.002245 -0.004035 0.100000 4.958940 4.959839 4.960133 4.959234
0.930000 -0.029782 0.013952 1.323859 -0.051060 0.023321 0.407069 0.000887 0.001777 0.094003 -0.002195 -0.003944 0.100000 4.958568 4.959447 4.959735 4.958856
0.940000 -0.030293 0.014186 1.327935 -0.051242 0.023391 0.408141 0.000867 0.001737 0.095003 -0.002145 -0.003856 0.100000 4.958195 4.959054 4.959335 4.958476
0.950000 -0.030807 0.014420 1.332022 -0.051419 0.023459 0.409206 0.000848 0.001699 0.096003 -0.002097 -0.003769 0.100000 4.957820 4.958660 4.958934 4.958095
0.960000 -0.031322 0.014655 1.336119 -0.051593 0.023525 0.410263 0.000829 0.001660 0.097003 -0.002050 -0.003685 0.100000 4.957443 4.958264 4.958533 4.957712
0.970000 -0.031838 0.014891 1.340227 -0.051762 0.023590 0.411312 0.000810 0.001623 0.098003 -0.002004 -0.003602 0.100000 4.957066 4.957868 4.958131 4.957328
0.980000 -0.032357 0.015127 1.344345 -0.051928 0.023654 0.412354 0.000792 0.001587 0.099003 -0.001959 -0.003521 0.100000 4.956687 4.957471 4.957728 4.956943
0.990000 -0.032877 0.015364 1.348474 -0.052090 0.023715 0.413387 0.000774 0.001551 0.100003 -0.001915 -0.003442 0.100000 4.956306 4.957073 4.957324 4.956557
1.000000 -0.033399 0.015601 1.352613 -0.052249 0.023775 0.414413 0.000757 0.001516 0.101003 -0.001872 -0.003365 0.100000 4.955924 4.956674 4.956919 4.956170
1.010000 -0.033922 0.015839 1.356762 -0.052404 0.023834 0.415431 0.000740 0.001482 0.102003 -0.001830 -0.003289 0.100000 4.955541 4.956274 4.956514 4.955781
1.020000 -0.034447 0.016078 1.360922 -0.052555 0.023891 0.416440 0.000723 0.001449 0.103003 -0.001789 -0.003216 0.100000 4.955156 4.955873 4.956107 4.955391
1.030000 -0.034973 0.016317 1.365091 -0.052704 0.023947 0.417442 0.000707 0.001417 0.104003 -0.001749 -0.003144 0.100000 4.954770 4.955471 4.955700 4.955000
1.040000 -0.035501 0.016557 1.369270 -0.052849 0.024001 0.418436 0.000691 0.001385 0.105003 -0.001709 -0.003073 0.100000 4.954383 4.955068 4.955292 4.954607
1.050000 -0.036030 0.016797 1.373460 -0.052990 0.024054 0.419422 0.000675 0.001354 0.106003 -0.001671 -0.003004 0.100000 4.953995 4.954664 4.954883 4.954214
1.060000 -0.036561 0.017038 1.377659 -0.053129 0.024105 0.420400 0.000660 0.001323 0.107003 -0.001633 -0.002937 0.100000 4.953605 4.954259 4.954473 4.953819
1.070000 -0.037093 0.017279 1.381868 -0.053264 0.024155 0.421370 0.000645 0.001294 0.108003 -0.001597 -0.002871 0.100000 4.953214 4.953853 4.954063 4.953423
1.080000 -0.037626 0.017521 1.386086 -0.053397 0.024204 0.422332 0.000631 0.001265 0.109003 -0.001561 -0.002806 0.100000 4.952821 4.953446 4.953651 4.953026
1.090000 -0.038160 0.017763 1.390314 -0.053526 0.024252 0.423286 0.000617 0.001236 0.110002 -0.001526 -0.002743 0.100000 4.952428 4.953039 4.953239 4.952628
1.100000 -0.038696 0.018006 1.394552 -0.053653 0.024299 0.424231 0.000603 0.001208 0.111002 -0.001491 -0.002682 0.100000 4.952033 4.952630 4.952826 4.952228
1.110000 -0.039234 0.018249 1.398799 -0.053777 0.024344 0.425169 0.000589 0.001181 0.112002 -0.001458 -0.002622 0.100000 4.951637 4.952220 4.952412 4.951828
1.120000 -0.039772 0.018493 1.403055 -0.053898 0.024388 0.426098 0.000576 0.001155 0.113002 -0.001425 -0.002563 0.100000 4.951239 4.951810 4.951997 4.951426
1.130000 -0.040311 0.018737 1.407321 -0.054016 0.024431 0.427020 0.000563 0.001129 0.114002 -0.001393 -0.002505 0.100000 4.950841 4.951399 4.951582 4.951024
1.140000 -0.040852 0.018982 1.411596 -0.054132 0.024473 0.427933 0.000550 0.001104 0.115002 -0.001362 -0.002449 0.100000 4.950441 4.950986 4.951165 4.950620
1.150000 -0.041394 0.019227 1.415879 -0.054245 0.024514 0.428838 0.000538 0.001079 0.116002 -0.001331 -0.002394 0.100000 4.950040 4.950573 4.950748 4.950215
1.160000 -0.041937 0.019472 1.420172 -0.054356 0.024554 0.429735 0.000526 0.001055 0.117002 -0.001301 -0.002341 0.100000 4.949638 4.950159 4.950330 4.949809
1.170000 -0.042481 0.019718 1.424474 -0.054464 0.024593 0.430623 0.000514 0.001031 0.118002 -0.001272 -0.002288 0.100000 4.949235 4.949744 4.949911 4.949402
1.180000 -0.043026 0.019964 1.428785 -0.054570 0.024631 0.431504 0.000503 0.001008 0.119002 -0.001243 -0.002237 0.100000 4.948830 4.949328 4.949492 4.948994
1.190000 -0.043573 0.020210 1.433104 -0.054673 0.024668 0.432376 0.000491 0.000985 0.120002 -0.001215 -0.002186 0.100000 4.948425 4.948912 4.949071 4.948584
1.200000 -0.044120 0.020457 1.437432 -0.054774 0.024704 0.433239 0.000480 0.000963 0.121002 -0.001188 -0.002137 0.100000 4.948018 4.948494 4.948650 4.948174
1.210000 -0.044668 0.020704 1.441769 -0.054873 0.024739 0.434095 0.000469 0.000942 0.122002 -0.001161 -0.002089 0.100000 4.947610 4.948076 4.948228 4.947763
1.220000 -0.045217 0.020952 1.446114 -0.054970 0.024773 0.434942 0.000459 0.000920 0.123002 -0.001135 -0.002043 0.100000 4.947201 4.947656 4.947806 4.947351
1.230000 -0.045767 0.021200 1.450468 -0.055064 0.024806 0.435781 0.000449 0.000900 0.124002 -0.001110 -0.001997 0.100000 4.946792 4.947236 4.947382 4.946937
1.240000 -0.046319 0.021448 1.454830 -0.055157 0.024839 0.436611 0.000438 0.000880 0.125002 -0.001085 -0.001952 0.100000 4.946380 4.946815 4.946958 4.946523
1.250000 -0.046871 0.021697 1.459200 -0.055247 0.024870 0.437433 0.000429 0.000860 0.126002 -0.001060 -0.001908 0.100000 4.945968 4.946393 4.946533 4.946108
1.260000 -0.047423 0.021945 1.463578 -0.055335 0.024901 0.438247 0.000419 0.000841 0.127002 -0.001037 -0.001865 0.100000 4.945555 4.945971 4.946107 4.945691
